date	power	latitude	longitude12.6.24 1:20	2.1	37.53 N	124.56 E12.6.23 16:42	2.6	36.7 N	128.31 E12.6.19 20:55	3.1	33.48 N	125.93 E12.6.14 6:15	2.1	39.68 N	126.81 E12.6.12 17:52	2.2	35.87 N	128.67 E12.6.12 13:34	2.4	37.33 N	125.27 E12.6.12 9:01	2.1	38.77 N	125.72 E12.6.12 3:42	2.1	36.32 N	127.51 E12.6.5 8:18	2.1	38.43 N	126.16 E12.6.1 12:05	2.6	37.12 N	125.96 E12.6.1 8:09	2.3	35.92 N	127.61 E12.5.30 2:48	3.4	36.57 N	129.57 E12.5.16 17:50	2.7	36.23 N	128.49 E12.5.15 11:05	2.9	35.92 N	129.62 E12.5.11 12:46	3.9	36.02 N	127.71 E12.5.2 5:04	2	35.76 N	126.81 E12.5.2 1:33	3.4	33.69 N	126.04 E12.4.20 21:11	3.1	33.43 N	127.26 E12.4.17 13:31	2.6	35.72 N	126.51 E12.3.30 14:51	2.2	36.49 N	127.91 E12.3.29 0:26	2.2	35.34 N	125.95 E12.3.18 9:20	2.8	36.53 N	130.58 E12.2.27 0:26	2.5	35.15 N	129.85 E12.2.24 9:05	3.2	35.2 N	129.93 E12.2.24 0:54	2.4	35.13 N	129.85 E12.2.21 22:30	2.5	35.13 N	129.8 E12.2.19 20:21	2.7	35.13 N	129.89 E12.1.24 2:41	2.2	37.12 N	125.96 E12.1.19 15:43	2.7	38.51 N	126.23 E11.12.27 21:57	3.3	36.86 N	129.94 E11.12.25 0:01	2.3	37.12 N	128.99 E11.12.14 15:39	2	37.97 N	125.82 E11.11.30 0:37	2.5	35.98 N	126.53 E11.11.26 4:03	2.2	34.23 N	127.67 E11.11.2 7:20	3	35.54 N	130.65 E11.10.7 19:04	2.7	33.34 N	127.19 E11.9.28 13:20	2.6	38.48 N	126.26 E11.9.26 22:12	3.3	34.58 N	128.12 E11.9.25 12:59	2.6	35.58 N	125.9 E11.9.21 23:59	2.6	35.91 N	125.21 E11.9.8 1:56	3.2	38.82 N	126.0 E11.8.31 19:39	2.6	35.7 N	129.75 E11.8.20 13:22	2.2	38.46 N	127.83 E11.8.20 6:57	3	37.5 N	124.46 E11.8.15 6:10	3.2	38.47 N	125.63 E11.8.9 12:11	2.5	35.66 N	129.76 E11.7.28 11:28	2.2	35.9 N	129.7 E11.7.27 14:38	2.8	36.55 N	129.56 E11.7.19 14:54	2.4	37.89 N	124.67 E11.7.13 4:05	2.1	35.91 N	128.39 E11.7.5 2:13	2.3	38.58 N	126.36 E11.6.27 14:11	2.9	35.52 N	126.14 E11.6.17 16:57	2.4	37.9 N	124.81 E11.6.17 16:38	4	37.89 N	124.81 E11.6.16 8:13	2.8	33.62 N	127.27 E11.6.15 14:21	3.7	33.71 N	127.81 E11.6.9 15:13	2.6	35.91 N	129.7 E11.6.8 14:21	3	35.08 N	125.3 E11.6.5 22:53	2.5	36.05 N	127.53 E11.6.2 10:50	2.9	36.7 N	127.94 E11.6.2 8:09	2.9	33.59 N	127.26 E11.5.29 10:22	3.2	35.58 N	128.75 E11.5.28 15:41	2.5	35.93 N	129.69 E11.5.25 18:29	2.3	33.61 N	127.28 E11.5.11 21:09	2.2	39.33 N	126.22 E11.4.24 16:37	3.1	37.85 N	125.01 E11.4.11 23:48	2.8	39.13 N	125.87 E11.4.11 6:11	3.1	37.72 N	129.07 E11.4.3 1:47	2.7	35.77 N	128.53 E11.3.28 13:50	3.2	35.97 N	129.95 E11.3.24 4:35	2.8	36.34 N	127.83 E11.3.14 14:47	2.9	34.62 N	126.1 E11.3.13 3:12	2.3	37.5 N	125.33 E11.3.12 8:15	2.6	37.0 N	125.27 E11.3.11 9:57	2.5	38.51 N	127.57 E11.3.6 11:04	2.9	38.66 N	125.67 E11.2.27 18:50	3.5	33.65 N	125.9 E11.2.11 19:21	2.2	37.19 N	129.06 E11.1.26 22:15	2.7	33.4 N	127.33 E11.1.21 10:56	2.2	33.7 N	127.38 E11.1.4 1:22	2	36.41 N	127.15 E10.12.20 6:56	2.2	36.89 N	125.37 E10.12.19 9:11	2.6	37.31 N	129.38 E10.11.28 10:15	2.3	35.18 N	127.02 E10.11.27 7:51	2.8	35.95 N	129.79 E10.11.20 0:07	2.7	36.83 N	126.76 E10.11.7 20:11	2.9	40.28 N	128.2 E10.10.25 12:36	2.5	34.29 N	127.39 E10.10.23 23:43	2.4	39.77 N	126.7 E10.10.22 11:59	2.5	35.85 N	128.18 E10.10.14 18:06	2.3	37.14 N	129.73 E10.10.7 2:33	2.8	35.87 N	129.79 E10.10.4 23:24	2.8	37.67 N	129.7 E10.9.30 2:07	2.6	33.36 N	127.24 E10.9.6 19:32	2.8	36.56 N	129.01 E10.8.28 7:35	3.2	32.9 N	126.27 E10.8.24 3:59	2.5	38.71 N	125.9 E10.7.27 18:32	2.1	36.34 N	127.26 E10.7.6 3:44	2.3	36.47 N	127.13 E10.6.28 12:19	2.1	38.75 N	126.03 E10.6.26 4:59	2.7	32.35 N	125.88 E10.6.22 22:21	2.6	38.46 N	125.64 E10.6.11 13:02	2.1	38.78 N	126.07 E10.5.26 15:22	2.4	37.6 N	129.68 E10.5.15 14:44	2.2	36.0 N	127.84 E10.4.28 14:42	2.1	36.55 N	128.71 E10.4.27 19:29	2.3	36.8 N	128.75 E10.4.16 19:56	2.3	38.72 N	125.97 E10.4.13 2:14	2.5	34.02 N	125.44 E10.4.12 1:18	2.2	34.12 N	125.66 E10.4.4 12:49	2.3	38.51 N	126.06 E10.3.9 12:50	3.2	36.42 N	125.75 E10.3.1 21:58	2.2	38.41 N	125.62 E10.2.22 23:29	3	33.29 N	127.17 E10.2.21 21:17	2.3	36.75 N	127.1 E10.2.16 18:53	3.2	35.65 N	130.1 E10.2.9 18:08	3	37.45 N	126.8 E10.2.3 20:57	2.6	33.33 N	127.19 E10.2.1 6:42	2.4	33.34 N	127.18 E10.2.1 5:00	2.3	33.3 N	127.14 E10.1.23 17:54	2.1	36.59 N	128.17 E10.1.10 11:58	2.1	38.8 N	126.07 E10.1.5 20:12	2.6	36.97 N	126.52 E09.12.26 10:55	2.2	37.87 N	124.91 E09.12.15 9:02	2.4	36.76 N	127.1 E09.12.15 7:19	2.3	38.8 N	125.94 E09.12.11 13:13	2.8	33.69 N	125.64 E09.12.4 5:14	2.8	36.72 N	128.55 E09.11.27 10:34	2.4	37.69 N	129.57 E09.11.17 5:38	2.3	36.07 N	126.93 E09.11.14 21:27	2.5	34.81 N	127.93 E09.11.14 5:28	2.4	35.66 N	126.91 E09.11.5 4:31	2.7	38.42 N	124.87 E09.10.16 13:12	2.3	33.4 N	127.29 E09.10.4 12:00	2.5	39.38 N	126.05 E09.10.1 21:30	2.9	38.12 N	126.02 E09.8.25 23:08	2.4	37.69 N	124.55 E09.8.21 23:02	3.8	38.82 N	125.79 E09.8.17 15:24	2.4	36.54 N	129.6 E09.8.15 3:18	2.6	36.52 N	129.61 E09.7.30 9:27	2.6	35.85 N	126.29 E09.7.17 13:14	2.5	38.45 N	126.15 E09.7.15 4:04	3	35.14 N	125.1 E09.7.1 8:55	2.6	37.84 N	124.94 E09.6.29 11:52	2.7	37.14 N	126.0 E09.6.28 22:07	3	35.78 N	128.29 E09.6.25 13:06	2.2	39.31 N	126.06 E09.6.20 21:14	2.2	38.03 N	126.62 E09.6.20 4:05	2.9	37.09 N	124.74 E09.6.6 1:56	2.4	35.09 N	125.06 E09.6.6 0:49	2.8	38.63 N	127.44 E09.6.3 20:09	2.9	38.57 N	126.5 E09.6.3 15:56	2.4	33.19 N	126.33 E09.5.31 15:24	2.3	38.6 N	126.43 E09.5.31 0:10	2.5	33.52 N	125.85 E09.5.26 18:59	2.2	36.57 N	129.22 E09.5.25 18:12	2.4	36.95 N	129.33 E09.5.15 22:41	2.4	36.59 N	126.41 E09.5.14 20:50	2.2	36.25 N	127.13 E09.5.2 12:28	2.9	36.57 N	128.71 E09.5.2 7:58	4	36.56 N	128.71 E09.4.29 12:15	2.9	33.43 N	127.36 E09.4.21 17:44	2	35.45 N	128.22 E09.4.18 20:19	2.5	33.39 N	127.07 E09.4.14 4:51	2.5	38.45 N	125.65 E09.4.2 20:28	3	37.6 N	125.95 E09.3.30 5:58	2.3	36.21 N	128.08 E09.3.26 22:21	2.9	38.11 N	127.13 E09.3.26 2:32	2.3	33.38 N	127.14 E09.3.2 14:20	3.4	37.11 N	124.6 E09.2.26 20:53	2.2	36.94 N	129.36 E09.2.26 15:03	2.7	35.03 N	129.59 E09.2.23 21:47	2.8	37.13 N	126.01 E09.2.19 0:01	2.3	39.72 N	126.89 E09.2.15 22:41	3	35.76 N	125.71 E09.2.15 12:57	2.3	35.85 N	127.72 E09.2.12 17:46	3.2	35.26 N	127.44 E09.1.13 19:07	3	36.47 N	129.64 E09.1.9 20:53	3.2	38.73 N	125.82 E09.1.5 2:59	2.1	33.47 N	127.64 E09.1.2 8:15	2.2	33.94 N	127.67 E09.1.1 15:58	2.5	36.5 N	129.08 E09.1.1 6:45	2.1	36.31 N	128.35 E08.12.29 5:51	2.2	35.67 N	126.34 E08.12.19 21:53	2.2	37.36 N	129.83 E08.12.19 17:53	3.5	36.49 N	129.68 E08.12.18 23:38	2.3	36.47 N	129.66 E08.12.11 19:31	2.7	40.38 N	126.87 E08.12.8 8:49	2.4	35.14 N	124.62 E08.12.7 18:02	2.3	37.79 N	125.02 E08.12.7 2:28	2.4	36.45 N	129.56 E08.11.11 23:37	2.5	38.56 N	125.66 E08.11.11 21:30	3	38.55 N	125.67 E08.11.11 21:20	3	38.54 N	125.65 E08.11.5 18:12	2.3	37.07 N	129.11 E08.10.29 9:26	3.4	36.35 N	127.25 E08.10.8 11:04	2.1	38.12 N	127.11 E08.9.20 11:24	2.8	34.11 N	125.02 E08.9.13 12:05	2.5	35.6 N	126.99 E08.9.11 10:46	2.4	38.08 N	127.12 E08.9.8 15:35	2.6	34.57 N	128.25 E08.9.4 0:44	3	35.13 N	125.04 E08.8.20 14:45	2.2	35.72 N	125.69 E08.7.27 21:48	2.2	34.45 N	128.08 E08.7.27 17:13	2.4	39.4 N	126.03 E08.7.23 19:29	3.2	34.49 N	128.04 E08.7.22 23:11	2.5	35.31 N	129.74 E08.7.4 20:48	2.5	39.3 N	127.19 E08.7.4 19:39	2.1	39.26 N	127.22 E08.7.1 16:32	2.3	35.54 N	128.82 E08.6.30 3:34	2.3	35.1 N	124.66 E08.6.21 23:30	2.2	35.57 N	128.6 E08.5.31 21:59	4.2	33.5 N	125.69 E08.5.26 11:01	2.6	35.85 N	130.01 E08.3.27 16:29	2.8	37.78 N	126.4 E08.3.21 23:57	2.7	35.15 N	124.57 E08.3.15 1:38	2	38.11 N	127.1 E08.3.9 18:07	2.2	38.75 N	125.84 E08.3.8 18:05	2	35.66 N	128.8 E08.2.29 15:53	3.2	38.75 N	126.23 E08.2.29 5:37	2.4	33.57 N	126.54 E08.2.26 23:22	2.5	35.97 N	126.56 E08.2.26 9:10	2.6	37.95 N	124.85 E08.2.23 18:19	2.2	35.82 N	129.33 E08.2.5 10:06	2.3	38.41 N	125.9 E08.1.16 19:58	3.9	35.65 N	125.37 E08.1.14 18:03	2.2	36.19 N	127.54 E08.1.10 22:51	2.2	35.09 N	125.06 E08.1.1 6:33	3.2	40.41 N	127.25 E07.12.28 4:03	2.7	34.98 N	129.64 E07.12.22 9:54	2.6	38.63 N	125.5 E07.12.16 0:04	2.2	35.62 N	127.8 E07.11.19 5:51	2.1	34.78 N	126.48 E07.10.29 2:32	2.5	36.62 N	128.42 E07.10.17 20:06	2.1	36.43 N	129.57 E07.10.16 14:59	2.9	37.45 N	128.97 E07.10.13 4:13	2.1	36.44 N	129.63 E07.10.8 22:36	2.2	38.9 N	125.76 E07.10.6 9:08	2.5	35.59 N	125.96 E07.10.4 23:56	2.9	36.43 N	129.55 E07.10.1 1:02	2.2	36.44 N	129.54 E07.9.24 0:24	2.6	36.45 N	129.61 E07.9.17 1:16	3	36.45 N	129.69 E07.9.12 6:50	2.7	36.46 N	129.47 E07.8.30 16:12	2.9	38.69 N	125.64 E07.8.18 15:09	2.5	35.99 N	125.78 E07.8.12 4:52	2.1	36.05 N	127.74 E07.8.7 18:39	2.4	37.23 N	128.8 E07.7.27 1:37	2.1	39.16 N	126.65 E07.7.22 13:49	2.6	36.88 N	126.66 E07.7.19 21:01	2.2	37.08 N	129.01 E07.7.8 19:28	2.3	37.37 N	129.66 E07.6.26 0:01	2.2	35.61 N	130.15 E07.5.28 0:51	2.1	35.23 N	128.57 E07.5.26 19:59	2.5	36.1 N	125.05 E07.5.19 7:53	2.4	36.57 N	129.0 E07.5.16 4:56	2.5	35.72 N	129.22 E07.5.13 16:22	2.2	35.92 N	128.01 E07.5.11 5:51	2.1	35.55 N	129.91 E07.5.3 18:24	2.1	36.6 N	127.83 E07.5.3 12:24	2.2	36.13 N	127.85 E07.4.25 8:36	2	36.94 N	126.53 E07.4.1 22:16	2.3	38.58 N	125.63 E07.3.28 2:47	2.8	38.64 N	125.6 E07.3.15 5:30	2.9	36.18 N	127.97 E07.3.10 18:18	2	37.21 N	128.85 E07.2.6 0:35	2.2	35.13 N	129.41 E07.1.24 16:31	2.4	38.62 N	125.59 E07.1.20 20:56	4.8	37.68 N	128.59 E07.1.19 9:06	2	37.69 N	128.57 E07.1.6 5:47	2.4	39.11 N	127.98 E06.12.28 9:44	2.2	36.11 N	128.11 E06.12.20 1:18	2.1	37.14 N	129.9 E06.12.10 1:39	2.5	33.06 N	126.22 E06.12.4 0:51	2.7	36.46 N	127.92 E06.11.26 3:05	2.4	34.14 N	127.48 E06.11.12 8:19	2.9	38.59 N	125.12 E06.11.11 1:16	2.4	35.97 N	127.45 E06.10.25 18:14	2.6	33.36 N	125.75 E06.10.22 14:09	2.2	37.13 N	125.98 E06.10.16 14:12	2.4	37.35 N	124.88 E06.10.4 5:29	2.2	36.67 N	127.67 E06.9.29 23:07	3.4	34.1 N	124.9 E06.9.20 14:15	2.1	34.62 N	128.81 E06.9.20 0:03	2.6	35.92 N	129.56 E06.8.26 7:44	2.2	37.21 N	128.81 E06.8.9 8:16	2.3	35.7 N	124.8 E06.8.7 14:18	2.8	35.6 N	124.63 E06.8.1 12:57	2	35.74 N	127.82 E06.7.26 2:50	2	35.8 N	127.88 E06.7.25 23:29	2.5	35.79 N	127.89 E06.7.24 2:44	2	37.17 N	126.32 E06.7.18 14:49	2	36.13 N	126.65 E06.6.1 11:58	2.4	34.6 N	128.16 E06.5.8 6:59	2.4	36.22 N	129.54 E06.4.30 9:50	2.5	37.05 N	129.84 E06.4.29 11:01	3.5	37.09 N	129.92 E06.4.29 1:01	2.5	37.07 N	129.81 E06.4.28 23:54	2.5	37.12 N	129.93 E06.4.28 23:47	3	37.09 N	129.92 E06.4.19 16:18	2.1	37.01 N	129.82 E06.4.19 16:01	2.4	37.1 N	129.92 E06.4.19 10:57	2.5	37.1 N	129.91 E06.4.19 9:49	3	37.05 N	129.96 E06.4.19 9:35	2.4	37.07 N	129.93 E06.4.13 1:09	2.8	34.74 N	125.01 E06.4.3 18:14	3.3	38.68 N	125.96 E06.4.2 0:04	2	35.38 N	127.22 E06.3.26 7:54	2.4	35.66 N	126.26 E06.3.23 7:42	2.5	38.32 N	127.3 E06.3.19 14:03	2	36.33 N	127.34 E06.3.19 13:59	2.9	36.34 N	127.36 E06.3.15 4:36	2.4	38.19 N	125.94 E06.3.11 4:52	2.1	37.13 N	126.0 E06.3.10 5:57	2.5	33.3 N	127.15 E06.2.28 18:52	2.3	36.22 N	127.66 E06.2.28 0:11	2.3	35.81 N	127.89 E06.2.14 3:32	3	38.67 N	126.03 E06.1.21 11:29	2.1	36.33 N	127.26 E06.1.19 22:53	2	37.19 N	128.77 E06.1.19 12:35	3.2	37.21 N	128.8 E05.12.25 3:58	2.4	34.74 N	127.22 E05.12.18 0:00	2.2	34.64 N	127.61 E05.12.7 18:02	2.2	36.63 N	127.77 E05.11.27 11:47	3.1	38.35 N	123.99 E05.11.15 9:10	3	37.2 N	128.79 E05.11.6 12:52	2.2	35.98 N	128.13 E05.10.23 1:02	2.5	34.97 N	127.07 E05.10.21 12:00	3	37.89 N	125.01 E05.10.13 11:22	2.5	36.95 N	129.43 E05.10.10 8:51	3.4	37.93 N	124.9 E05.10.3 19:18	2.1	35.62 N	129.4 E05.9.7 17:11	2.1	37.09 N	127.86 E05.8.31 12:58	2.1	37.12 N	129.7 E05.8.25 19:33	2.2	36.75 N	126.3 E05.8.24 5:06	3.5	34.06 N	126.95 E05.7.30 3:01	3.1	34.14 N	127.47 E05.6.30 0:25	3.1	36.66 N	129.63 E05.6.29 23:18	4	34.5 N	129.05 E05.6.20 15:31	3	38.81 N	125.57 E05.6.15 7:37	3	33.0 N	126.15 E05.6.15 7:07	3.7	33.15 N	126.14 E05.6.10 21:14	2.5	36.78 N	128.48 E05.6.10 12:49	2.4	36.73 N	128.48 E05.6.8 0:07	2.5	37.51 N	124.76 E05.5.15 7:22	2.6	38.13 N	125.6 E05.5.1 16:27	3.6	35.04 N	123.0 E05.4.21 12:37	3	34.91 N	125.47 E05.4.9 23:04	2.4	35.67 N	130.03 E05.4.9 19:13	2.4	37.17 N	125.41 E05.4.1 0:15	2.4	33.56 N	126.97 E05.3.31 19:32	2.2	36.43 N	125.57 E05.3.17 23:39	3.1	32.47 N	125.85 E05.3.12 11:56	2.4	38.82 N	127.14 E05.2.20 22:18	3.4	35.4 N	126.22 E05.2.7 20:16	2.8	36.59 N	130.02 E05.2.5 11:27	2.5	33.49 N	126.36 E05.2.3 7:48	2.4	38.95 N	130.39 E04.12.12 3:00	2.1	33.6 N	127.7 E04.12.10 19:41	2.3	32.9 N	125.8 E04.11.30 13:51	2.5	33.2 N	125.7 E04.11.28 13:15	2.4	37.6 N	129.5 E04.11.5 1:25	2	37.1 N	126.1 E04.10.20 14:12	2.7	34.4 N	125.5 E04.10.14 3:02	2.7	33.7 N	127.3 E04.10.11 19:19	2.2	38.0 N	125.4 E04.10.4 6:24	2	35.5 N	128.3 E04.9.27 18:47	2.5	35.5 N	128.3 E04.9.24 1:40	2.5	33.4 N	127.1 E04.9.15 7:47	2.5	37.5 N	126.9 E04.8.13 22:42	2.7	37.6 N	126.5 E04.8.11 4:29	2.3	33.3 N	126.2 E04.8.6 5:32	3.3	35.9 N	127.4 E04.7.14 20:37	2.1	36.4 N	127.3 E04.7.14 13:44	2.6	33.4 N	127.2 E04.7.13 21:08	2.1	38.5 N	126.0 E04.6.11 16:25	2.1	37.3 N	128.7 E04.6.1 20:22	3.5	37.2 N	130.0 E04.5.30 21:45	2.2	37.0 N	129.3 E04.5.30 4:45	2	36.6 N	130.0 E04.5.29 19:14	5.2	36.8 N	130.2 E04.5.25 18:08	2.7	39.5 N	124.9 E04.5.17 15:05	2.1	36.4 N	125.9 E04.5.6 23:10	2	37.5 N	129.9 E04.5.5 12:22	3.1	32.7 N	126.0 E04.5.5 2:15	2.2	33.4 N	127.3 E04.5.5 1:07	2.2	33.4 N	127.3 E04.4.30 23:43	2.8	35.8 N	129.4 E04.4.29 17:31	2.9	37.4 N	123.8 E04.4.26 13:29	3.9	35.8 N	128.2 E04.4.15 23:25	2	34.9 N	124.6 E04.4.2 12:04	2.9	39.4 N	126.0 E04.3.7 20:58	2.9	35.8 N	125.4 E04.2.26 5:51	2.1	37.2 N	128.9 E04.2.6 7:30	2.4	38.6 N	126.1 E04.1.29 20:22	2.4	35.9 N	128.5 E04.1.23 5:27	2	35.4 N	128.0 E04.1.17 9:47	2.9	33.7 N	125.8 E04.1.6 1:49	3.2	38.7 N	125.1 E04.1.5 6:11	2.9	36.2 N	127.0 E03.10.17 11:55	2	35.8 N	129.4 E03.10.14 1:44	2.4	34.1 N	127.5 E03.10.13 18:12	3.6	37.0 N	126.5 E03.10.5 5:03	2.1	36.3 N	127.3 E03.10.4 4:59	2.3	33.2 N	126.9 E03.9.25 15:24	2.5	36.0 N	129.6 E03.9.24 3:26	2.3	35.8 N	128.5 E03.9.19 20:48	2.9	37.5 N	124.5 E03.8.12 1:25	2.6	34.7 N	130.3 E03.8.7 11:04	2.7	36.8 N	129.5 E03.7.28 6:12	2.7	35.1 N	124.7 E03.7.18 17:05	2.9	35.0 N	124.3 E03.7.9 15:20	2.7	34.9 N	128.2 E03.7.5 12:18	3	37.4 N	125.3 E03.6.29 11:53	2.1	35.7 N	124.8 E03.6.9 10:14	4	36.0 N	123.6 E03.6.8 2:07	2.6	36.5 N	125.1 E03.6.4 3:34	2.7	35.2 N	125.2 E03.4.16 2:55	3.3	36.4 N	126.3 E03.4.5 0:56	2.4	36.2 N	127.3 E03.4.5 0:31	2.9	36.2 N	127.3 E03.4.5 0:25	2.5	36.2 N	127.3 E03.4.1 22:26	2.1	36.4 N	127.8 E03.3.30 20:10	5	37.8 N	123.7 E03.3.23 5:38	4.9	35.0 N	124.6 E03.3.19 23:05	2.3	36.5 N	129.6 E03.3.14 4:06	2.1	36.2 N	128.7 E03.3.10 3:28	3.1	36.1 N	128.4 E03.3.4 12:44	2.9	38.3 N	128.6 E03.3.1 23:33	3	35.8 N	129.3 E03.3.1 21:07	2.5	37.6 N	124.6 E03.2.14 16:42	2.9	38.0 N	124.5 E03.2.9 22:28	2.3	36.0 N	127.9 E03.2.8 23:46	2.9	35.3 N	126.6 E03.1.16 14:02	2.2	33.6 N	127.3 E03.1.13 22:03	2.8	35.8 N	129.4 E03.1.10 0:56	2.7	35.9 N	129.2 E03.1.9 17:33	3.9	37.4 N	124.2 E02.12.26 23:41	2.7	36.5 N	127.0 E02.12.17 8:44	2.1	37.1 N	126.4 E02.12.16 18:21	2.4	36.7 N	130.2 E02.12.12 21:42	2.3	37.1 N	126.4 E02.12.10 7:42	3.8	38.8 N	127.2 E02.12.7 16:43	2.7	37.4 N	129.4 E02.12.5 11:01	2.1	36.7 N	126.2 E02.12.5 10:05	2	36.7 N	126.3 E02.11.13 21:46	2.4	35.8 N	127.9 E02.11.6 21:48	2.5	36.4 N	127.7 E02.10.28 11:50	2.8	35.1 N	126.6 E02.10.25 4:06	2.4	33.9 N	127.1 E02.10.23 10:30	2.8	34.9 N	128.4 E02.10.20 4:22	3	35.2 N	127.7 E02.10.19 21:31	2.7	36.2 N	127.6 E02.10.16 19:48	2.4	36.6 N	127.6 E02.10.4 2:06	2.4	38.1 N	126.4 E02.9.19 3:10	2.9	35.6 N	125.4 E02.9.16 7:36	2.8	36.1 N	128.3 E02.9.15 16:40	2.5	35.9 N	129.7 E02.8.13 16:07	2.7	35.1 N	125.2 E02.8.10 21:47	4	35.1 N	123.4 E02.8.6 21:37	2.5	35.7 N	127.6 E02.8.6 7:32	3	34.7 N	127.4 E02.7.17 6:50	3.3	38.0 N	124.4 E02.7.12 8:17	2.1	35.9 N	129.8 E02.7.9 4:01	3.8	35.9 N	129.6 E02.7.2 1:49	2.3	35.8 N	128.0 E02.6.23 11:12	2	34.7 N	126.6 E02.6.7 22:24	2.8	38.4 N	125.3 E02.5.29 18:22	2.4	34.7 N	127.9 E02.4.17 7:52	3.9	40.5 N	128.5 E02.4.14 12:29	2.4	35.1 N	125.0 E02.4.1 7:46	2.5	37.3 N	128.1 E02.3.25 18:10	2.4	37.1 N	127.2 E02.3.25 5:31	2.4	37.4 N	129.2 E02.3.22 11:28	3.5	38.3 N	124.5 E02.3.17 9:26	3.9	38.1 N	124.3 E02.3.12 20:04	2.4	34.9 N	127.4 E02.3.8 2:09	2.4	35.5 N	126.1 E02.3.7 23:30	3	36.5 N	126.6 E02.2.28 22:26	2.1	36.7 N	128.1 E02.2.7 9:31	2.4	36.1 N	129.2 E02.2.3 22:44	2.6	35.0 N	125.0 E02.1.17 20:16	2.9	35.1 N	125.0 E02.1.17 6:28	2.8	36.2 N	126.2 E02.1.8 8:18	2.8	35.8 N	128.2 E02.1.7 17:10	3.1	35.4 N	128.8 E02.1.4 0:33	2.3	34.8 N	127.4 E01.11.30 11:18	2.4	35.9 N	127.5 E01.11.24 16:10	4.1	36.7 N	129.9 E01.11.21 10:49	3.5	36.7 N	128.3 E01.11.13 6:15	1.9	36.5 N	127.9 E01.11.9 13:54	2.6	34.7 N	126.9 E01.10.28 22:27	2.1	37.1 N	129.0 E01.10.1 3:35	2.6	36.0 N	127.7 E01.9.24 9:33	2.6	35.5 N	127.5 E01.9.19 8:47	2.6	36.6 N	126.9 E01.9.15 2:32	2.2	35.6 N	125.9 E01.9.13 6:07	2.2	36.4 N	127.0 E01.9.7 8:42	2.8	34.8 N	127.4 E01.8.24 11:12	3.1	35.9 N	128.2 E01.8.20 21:04	2.5	34.0 N	125.5 E01.8.6 23:46	2.3	36.7 N	128.3 E01.7.27 10:04	2.2	36.5 N	128.0 E01.7.26 19:55	2	36.2 N	127.4 E01.7.23 17:29	3.5	36.4 N	128.0 E01.7.15 20:01	2.3	36.7 N	127.0 E01.6.29 11:21	3.6	35.8 N	126.6 E01.6.17 1:04	2.3	35.7 N	126.4 E01.6.16 21:26	2.2	36.0 N	127.9 E01.6.13 13:53	2.9	34.8 N	127.3 E01.6.9 0:36	2.3	36.7 N	128.8 E01.5.28 7:25	2.1	36.4 N	127.8 E01.5.27 20:24	2.5	35.8 N	129.7 E01.5.27 15:25	2.6	34.1 N	127.6 E01.5.25 0:06	2.6	33.6 N	126.8 E01.5.16 1:09	2	36.0 N	126.7 E01.5.5 19:23	1.7	34.4 N	127.4 E01.5.5 11:21	3.3	37.8 N	124.5 E01.4.21 2:30	2.1	35.9 N	125.3 E01.4.17 2:42	2.5	35.4 N	126.1 E01.4.16 22:50	2.2	35.9 N	129.7 E01.3.19 22:16	2.8	37.6 N	124.6 E01.3.7 8:27	2.5	35.1 N	127.8 E01.3.6 0:23	2.3	35.3 N	125.7 E01.2.28 12:46	2.9	35.3 N	127.9 E01.2.19 8:27	2	37.4 N	128.4 E01.2.14 1:02	2.2	36.0 N	128.2 E01.2.10 17:47	2	37.1 N	127.6 E01.2.8 16:59	2.3	38.4 N	127.9 E01.1.29 11:44	3	35.7 N	126.6 E00.12.22 8:19	2.7	36.3 N	127.4 E00.12.9 18:51	3.7	36.5 N	130.0 E00.12.2 16:53	3.1	34.6 N	126.9 E00.11.14 17:41	2.9	38.8 N	125.8 E00.11.5 21:39	2.2	36.2 N	127.2 E00.10.28 7:10	2.7	37.1 N	126.7 E00.10.23 11:35	2.6	37.7 N	125.7 E00.10.8 7:46	2.6	37.3 N	128.8 E00.10.3 0:01	2	36.7 N	127.2 E00.9.23 10:07	2.4	35.6 N	128.4 E00.9.13 20:38	2.4	35.7 N	127.1 E00.8.21 19:43	3.4	38.9 N	125.9 E00.8.15 1:36	2.2	35.3 N	125.9 E00.8.6 19:35	2.2	36.3 N	128.4 E00.8.5 21:02	2.7	35.1 N	124.9 E00.7.24 7:00	3	38.5 N	127.8 E00.5.26 21:41	2.4	36.2 N	127.1 E00.5.19 1:44	2.7	36.3 N	128.5 E00.5.11 16:00	2.8	38.6 N	127.7 E00.5.11 15:01	2.9	38.6 N	127.8 E00.5.11 10:51	3.1	33.3 N	125.9 E00.5.9 6:55	2.3	35.2 N	128.1 E00.4.29 8:53	3.3	35.8 N	125.7 E00.4.15 8:05	2.3	36.6 N	128.3 E00.4.12 4:44	3.5	36.9 N	125.3 E00.3.21 13:43	2.3	36.5 N	126.0 E00.3.15 1:10	2.5	36.3 N	125.9 E00.2.21 1:06	2.1	35.8 N	128.2 E00.1.18 15:08	3	38.7 N	127.9 E99.12.27 12:29	3	36.8 N	128.2 E99.12.20 13:28	2.5	36.0 N	128.4 E99.12.14 14:46	2.8	36.7 N	127.3 E99.9.24 1:59	2.7	38.2 N	128.8 E99.9.12 5:56	3.2	35.9 N	129.3 E99.9.11 3:17	3.4	36.1 N	123.7 E99.7.17 15:22	2.9	36.2 N	127.0 E99.6.19 20:58	2.7	36.3 N	127.8 E99.6.17 22:33	2.6	33.2 N	126.4 E99.6.9 2:15	2.6	37.7 N	125.8 E99.6.2 18:12	3.4	35.9 N	129.3 E99.5.15 14:41	3.1	35.5 N	126.2 E99.5.9 8:17	3.5	36.2 N	123.7 E99.5.9 8:11	3.1	37.7 N	130.5 E99.5.4 3:09	2.5	37.3 N	129.4 E99.4.25 18:35	2.8	35.8 N	127.1 E99.4.24 1:35	3.2	36.0 N	129.3 E99.4.23 12:41	2.2	37.3 N	128.9 E99.4.22 1:27	2	36.5 N	127.8 E99.4.21 11:24	2.1	36.7 N	127.1 E99.4.9 20:48	2.8	37.3 N	128.9 E99.4.8 1:09	2.6	37.2 N	128.9 E99.4.8 0:40	2.9	37.2 N	128.9 E99.4.7 23:43	3.3	37.2 N	128.9 E99.4.4 11:29	3.1	36.4 N	124.0 E99.3.28 12:39	3	37.5 N	130.2 E99.3.15 22:08	2.4	37.5 N	130.4 E99.3.15 16:11	2.7	37.5 N	130.4 E99.3.14 20:31	3.2	37.5 N	130.4 E99.3.5 23:41	3.5	40.5 N	126.3 E99.2.24 2:14	3.5	37.3 N	126.0 E99.2.8 6:36	2.5	37.1 N	128.9 E99.2.3 3:21	2.9	38.5 N	127.8 E99.1.24 2:43	2.9	37.4 N	130.3 E99.1.24 1:01	3.3	37.0 N	128.8 E99.1.12 21:51	2.9	38.3 N	128.6 E99.1.11 13:07	4.2	38.3 N	128.7 E98.12.9 6:42	2.7	37.5 N	129.1 E98.11.30 8:57	2.8	37.2 N	128.7 E98.10.22 17:34	2.8	36.6 N	125.5 E98.10.14 3:50	2.5	35.8 N	128.3 E98.10.2 20:09	2.5	37.3 N	128.8 E98.9.30 22:29	3.3	35.8 N	126.9 E98.9.13 20:42	3.6	36.1 N	126.9 E98.9.12 23:08	2.3	35.9 N	129.3 E98.9.9 19:53	2.1	36.1 N	128.5 E98.9.3 16:52	3.8	36.6 N	125.7 E98.8.4 21:43	2.9	35.5 N	128.8 E98.7.7 17:37	2.7	36.0 N	129.9 E98.7.7 0:13	2.7	38.8 N	126.1 E98.7.1 17:09	2	36.8 N	127.8 E98.6.19 6:19	2.3	36.7 N	128.4 E98.6.13 23:29	2.4	36.7 N	130.1 E98.6.13 18:24	2.4	36.7 N	130.0 E98.6.8 19:55	2.8	36.0 N	125.2 E98.6.8 11:45	3.7	38.5 N	124.3 E98.6.7 17:39	2.8	34.4 N	129.0 E98.6.6 15:04	2.8	38.9 N	126.0 E98.6.5 19:42	2.9	35.9 N	123.9 E98.5.25 11:19	2.4	37.6 N	129.7 E98.5.20 0:34	2.3	35.5 N	126.2 E98.5.14 14:23	2.2	36.7 N	128.4 E98.5.1 7:16	2.5	36.1 N	128.0 E98.4.30 21:57	2.3	36.6 N	128.4 E98.4.16 3:58	3.5	38.4 N	126.3 E98.4.2 9:34	2.3	36.3 N	127.4 E98.2.12 3:36	2.9	38.4 N	128.5 E98.2.10 21:11	4.1	37.8 N	123.6 E98.1.18 1:16	3.9	35.6 N	129.9 E97.11.10 18:26	3	37.8 N	125.4 E97.11.9 18:16	2.5	37.8 N	126.8 E97.10.18 19:35	3	37.3 N	128.8 E97.10.11 19:50	3.2	35.9 N	128.7 E97.10.2 23:47	2.4	35.0 N	128.0 E97.9.26 8:35	2.5	37.9 N	129.7 E97.8.5 12:45	2.8	36.7 N	128.4 E97.8.5 4:47	2.3	37.2 N	128.7 E97.6.30 23:48	2.8	36.1 N	127.7 E97.6.26 3:50	4.2	35.8 N	129.3 E97.6.16 22:51	2.7	35.3 N	129.1 E97.6.15 12:46	2.7	37.4 N	126.2 E97.6.15 8:45	2.8	37.4 N	126.2 E97.5.22 7:47	3.5	36.0 N	126.8 E97.5.10 0:56	2.5	37.3 N	128.5 E97.5.9 21:43	3	35.2 N	126.0 E97.5.9 21:40	3.2	35.2 N	126.0 E97.4.23 1:39	2.5	36.2 N	126.0 E97.3.9 23:40	2.8	39.0 N	127.3 E97.1.15 5:34	3.2	38.3 N	128.7 E97.1.3 20:34	2.9	35.0 N	125.2 E96.12.21 7:45	2.8	37.3 N	128.6 E96.12.18 17:23	2.7	37.3 N	128.6 E96.12.15 16:20	2.5	37.2 N	128.8 E96.12.14 15:17	2.7	37.3 N	128.8 E96.12.13 13:27	3	37.3 N	128.8 E96.12.13 13:10	4.5	37.2 N	128.8 E96.11.25 0:27	2.3	35.6 N	129.3 E96.11.22 10:09	2.9	32.8 N	127.2 E96.11.17 8:49	3.6	39.0 N	127.6 E96.11.10 21:33	3.5	36.7 N	125.4 E96.10.16 4:45	3.3	36.1 N	128.3 E96.9.27 19:32	2.4	35.6 N	129.9 E96.9.14 22:38	3.6	39.0 N	126.0 E96.8.14 18:10	3	36.7 N	128.0 E96.8.3 0:06	2.7	37.4 N	129.5 E96.7.27 1:22	3	34.2 N	123.3 E96.7.15 4:58	2.8	36.9 N	126.5 E96.6.27 21:35	2.1	38.2 N	126.3 E96.6.21 1:04	2.8	36.1 N	126.9 E96.6.18 16:33	2.7	39.5 N	126.3 E96.6.15 6:05	2.8	38.9 N	125.9 E96.6.4 18:33	2.4	36.8 N	129.1 E96.6.4 1:14	2.6	39.3 N	126.3 E96.5.26 19:58	3.5	36.4 N	125.5 E96.5.26 8:34	2.5	33.5 N	126.0 E96.5.21 17:15	3.1	38.8 N	125.6 E96.5.16 11:05	2.8	35.3 N	129.1 E96.5.14 13:36	2.1	36.5 N	127.5 E96.5.13 0:49	3	35.8 N	130.2 E96.5.7 0:12	2.9	34.7 N	127.3 E96.5.6 21:02	2.1	35.9 N	127.7 E96.4.19 2:39	2.8	36.3 N	127.0 E96.4.14 5:22	3.1	35.9 N	127.9 E96.4.14 2:20	2.3	35.8 N	127.9 E96.3.20 4:54	2.5	36.6 N	128.1 E96.3.2 21:42	2.2	36.4 N	127.8 E96.2.27 4:39	2.6	35.9 N	129.6 E96.2.9 8:51	3.1	39.2 N	126.4 E96.1.24 5:09	4.2	37.9 N	129.6 E95.12.24 3:47	3	35.3 N	124.6 E95.12.22 5:24	2.5	34.6 N	127.5 E95.12.21 8:25	2.6	36.6 N	128.1 E95.11.10 14:03	3	38.9 N	125.8 E95.10.8 8:33	3.5	35.6 N	129.7 E95.10.6 21:07	3.7	37.5 N	129.8 E95.10.3 14:05	2.9	36.9 N	129.2 E95.9.17 0:13	2.4	36.3 N	126.8 E95.9.3 22:38	2.4	33.5 N	126.9 E95.8.24 3:08	2.8	36.2 N	123.7 E95.8.12 3:17	3.6	38.0 N	124.6 E95.8.9 15:42	2.9	37.9 N	124.6 E95.8.4 10:15	2.8	36.3 N	123.7 E95.7.24 19:02	4.2	38.2 N	124.4 E95.6.24 21:49	2.2	37.0 N	129.3 E95.6.24 19:47	2.6	36.8 N	129.5 E95.6.19 18:09	3	36.4 N	128.2 E95.6.5 18:21	2.5	38.7 N	126.4 E95.5.17 1:43	2.9	37.6 N	124.3 E95.5.10 8:46	3.4	39.3 N	126.0 E95.4.30 19:40	2.5	35.8 N	128.7 E95.4.28 15:38	2.5	34.7 N	128.9 E95.3.20 1:01	2.5	35.7 N	131.1 E95.3.11 9:30	3	38.7 N	125.6 E95.2.5 12:59	2.6	39.6 N	126.0 E95.2.2 15:56	2.5	38.9 N	126.0 E95.1.29 17:02	2.4	38.9 N	126.0 E95.1.21 7:39	3.3	34.2 N	125.0 E95.1.14 6:43	3	37.9 N	124.5 E94.12.26 23:09	2.3	34.8 N	128.1 E94.12.25 2:41	2.4	35.3 N	126.0 E94.12.19 17:25	1.9	34.9 N	126.7 E94.12.18 3:23	2	36.4 N	128.1 E94.12.15 10:41	2.8	36.1 N	125.4 E94.12.2 0:42	3.6	37.9 N	123.8 E94.11.1 9:11	3.4	38.9 N	125.8 E94.10.14 21:51	3.5	38.8 N	125.6 E94.9.21 3:35	3.2	36.4 N	128.9 E94.8.31 0:07	2.8	37.4 N	124.8 E94.8.24 15:18	2.1	38.5 N	127.5 E94.7.26 2:41	4.9	34.9 N	124.1 E94.4.23 13:03	4.1	35.7 N	130.9 E94.4.23 12:41	4.5	35.1 N	131.1 E94.4.22 2:05	4.6	34.9 N	131.0 E94.4.12 16:04	3.1	38.5 N	125.5 E94.3.25 6:03	2.3	36.3 N	128.2 E94.3.4 0:33	2.7	35.9 N	129.6 E94.3.3 19:39	2.7	34.4 N	127.9 E94.2.26 4:52	2.5	35.6 N	127.9 E94.2.24 6:40	2.2	37.4 N	129.4 E94.2.12 11:58	3.5	36.4 N	127.3 E94.2.2 14:12	2	35.9 N	128.3 E94.1.24 15:47	2.3	38.4 N	126.4 E94.1.11 8:09	3	36.3 N	123.9 E93.12.30 9:58	2.6	38.5 N	127.6 E93.12.24 8:13	3.1	35.9 N	129.1 E93.12.8 11:43	3.4	39.6 N	125.9 E93.8.26 0:07	2.9	35.7 N	127.9 E93.7.20 4:52	1.9	37.1 N	129.2 E93.7.14 11:48	2.6	38.8 N	125.7 E93.7.8 11:10	3.6	35.2 N	128.4 E93.6.12 16:03	2.7	37.5 N	125.5 E93.6.8 17:42	2.2	38.7 N	126.7 E93.5.2 17:57	2.9	37.3 N	130.5 E93.4.16 18:32	2.2	36.5 N	128.3 E93.4.9 2:28	2.2	36.6 N	126.9 E93.4.8 12:01	2.9	34.9 N	130.6 E93.4.2 1:20	2.2	35.2 N	128.3 E93.3.28 10:16	4.5	33.1 N	123.8 E93.3.18 0:36	2.8	36.4 N	130.0 E93.3.17 0:36	2.6	36.6 N	129.9 E93.3.11 6:55	2.8	37.5 N	124.8 E93.3.1 12:00	3.9	35.6 N	126.8 E93.3.1 11:59	3.3	35.6 N	126.9 E93.2.25 10:15	2.9	35.6 N	126.4 E93.2.8 10:04	2.1	38.7 N	127.8 E93.1.31 15:31	3.1	41.1 N	125.7 E92.12.16 10:28	2.1	38.1 N	128.3 E92.12.13 20:22	4	35.3 N	130.1 E92.11.25 18:45	2.6	37.7 N	126.4 E92.11.13 2:47	3.4	38.4 N	125.3 E92.11.12 8:02	3.8	38.5 N	125.4 E92.11.11 9:32	3.4	35.8 N	123.7 E92.11.4 2:30	4.4	34.7 N	122.8 E92.10.20 10:34	2.6	36.0 N	128.2 E92.9.5 0:22	2.7	37.0 N	126.8 E92.7.19 17:01	3.1	39.1 N	127.1 E92.7.17 8:16	2.5	37.1 N	126.1 E92.5.4 17:06	2.6	35.8 N	128.4 E92.4.9 5:32	2.9	36.2 N	127.2 E92.1.21 3:36	4	35.4 N	129.9 E92.1.15 21:26	2	36.0 N	127.3 E91.10.30 0:57	2.2	38.5 N	127.2 E91.10.16 4:59	2.8	35.6 N	129.6 E91.10.11 7:20	3.2	36.8 N	129.3 E91.8.10 8:26	2.7	36.5 N	129.7 E91.7.23 23:08	3.1	35.6 N	128.0 E91.7.20 12:25	3.1	35.3 N	127.9 E91.6.18 16:07	2.6	39.1 N	126.1 E91.6.7 15:25	2.7	35.8 N	128.8 E91.5.23 7:16	2.6	36.5 N	127.9 E91.5.13 10:58	2	35.3 N	126.7 E91.5.13 1:25	2.2	35.9 N	128.5 E91.4.27 20:01	3	36.1 N	127.2 E91.4.14 1:48	3.1	36.5 N	128.7 E91.3.28 3:31	2.7	37.0 N	126.4 E91.2.2 11:08	3.4	33.4 N	123.8 E91.1.25 3:57	2.8	37.3 N	129.8 E91.1.3 14:39	3.4	37.6 N	124.7 E91.1.3 8:27	2.7	36.4 N	128.8 E90.10.22 18:09	3.4	35.9 N	130.0 E90.6.30 10:45	2.5	36.5 N	126.7 E90.6.19 13:28	2.6	37.8 N	123.7 E90.6.14 3:37	2.3	37.5 N	127.1 E90.6.2 1:46	2.4	36.4 N	127.8 E90.3.11 15:30	2.6	38.1 N	126.3 E90.3.10 16:59	2.7	38.2 N	126.3 E90.3.4 14:51	2.6	38.7 N	125.8 E90.2.28 15:01	3.1	38.3 N	126.3 E90.2.28 13:53	2.5	38.0 N	126.2 E90.2.22 15:14	2.8	38.3 N	126.4 E90.2.18 21:29	3.3	38.2 N	123.9 E90.1.28 15:01	2.7	38.3 N	126.2 E90.1.10 17:07	2.5	36.3 N	127.4 E90.1.9 13:53	2.9	36.6 N	125.6 E89.12.29 14:59	2.8	38.2 N	126.2 E89.12.11 15:18	2.8	38.0 N	125.9 E89.6.23 0:26	3.5	36.7 N	127.8 E89.6.20 15:28	3.2	38.1 N	126.2 E89.5.25 14:58	3.1	38.6 N	126.3 E89.5.22 14:59	3.2	37.8 N	125.8 E89.4.30 15:27	3.4	36.3 N	127.3 E89.3.29 15:00	3.1	37.9 N	125.9 E89.3.13 16:03	3.4	38.2 N	125.5 E89.3.3 15:15	3.4	38.1 N	124.9 E89.1.5 15:13	3.2	38.5 N	126.1 E88.12.2 23:54	2.5	36.3 N	127.9 E88.10.15 17:26	3.4	38.4 N	126.2 E88.5.3 14:59	3.4	38.3 N	126.3 E88.4.15 15:44	3.7	40.4 N	127.0 E88.1.24 6:46	2.9	36.2 N	129.2 E87.10.25 13:23	3.7	37.5 N	130.1 E87.10.6 23:36	3.5	36.2 N	130.1 E87.10.6 7:04	3.1	35.9 N	129.9 E87.9.25 0:44	2.2	37.8 N	129.1 E87.6.13 11:32	2.8	35.3 N	126.1 E87.3.6 7:10	4	38.7 N	125.5 E86.8.11 9:52	3.5	37.1 N	126.0 E86.7.11 16:43	3.2	34.3 N	126.9 E86.5.11 4:03	3.1	36.6 N	125.9 E86.5.10 14:02	3.1	-	-86.5.2 17:26	3	36.7 N	125.7 E86.5.2 12:44	3.4	36.6 N	125.8 E86.4.27 9:03	3.3	36.5 N	125.6 E86.4.26 4:24	3.5	36.6 N	125.5 E86.3.24 10:58	2.6	38.8 N	125.9 E86.3.20 16:46	3.6	34.2 N	125.1 E86.3.17 11:52	3.2	35.9 N	129.5 E86.3.4 5:29	2.7	39.4 N	125.7 E86.2.9 7:04	3.3	35.9 N	125.8 E86.2.3 16:38	2.8	35.7 N	126.9 E86.1.19 11:20	3	33.5 N	126.4 E85.12.24 15:31	2.3	-	-85.12.22 12:09	3	39.3 N	125.8 E85.12.10 21:42	3.2	35.8 N	129.7 E85.11.10 17:23	3.1	39.8 N	125.8 E85.11.2 2:56	2.9	36.7 N	128.9 E85.8.8 16:47	3.1	38.4 N	125.1 E85.8.5 19:24	2.8	39.4 N	125.9 E85.7.18 19:14	2.4	38.5 N	125.8 E85.6.26 17:19	2.6	37.3 N	126.4 E85.6.25 11:13	3.8	36.9 N	129.7 E85.6.25 7:29	2.8	37.3 N	126.4 E85.6.25 6:40	4	37.3 N	126.4 E85.6.20 5:03	3.3	35.9 N	128.6 E85.6.18 13:43	2.8	38.5 N	125.8 E85.6.7 12:59	3.1	39.4 N	125.9 E85.5.27 6:23	2.4	38.3 N	125.9 E85.5.22 17:27	2.9	38.1 N	125.6 E85.5.13 18:26	2.9	36.6 N	128.6 E85.4.20 21:36	3.4	41.6 N	127.0 E85.3.22 16:01	2.7	38.4 N	125.1 E85.1.15 9:59	3.4	34.7 N	130.0 E85.1.14 12:44	4.2	34.6 N	129.9 E84.11.16 8:50	2.6	39.9 N	125.9 E84.11.9 21:29	2.4	35.8 N	128.5 E84.10.10 16:30	2.9	38.9 N	125.9 E84.8.5 7:35	2.8	37.2 N	125.0 E84.7.19 13:57	3.9	36.0 N	125.2 E84.6.25 23:53	2.2	37.0 N	126.8 E84.5.14 11:39	2.6	35.2 N	126.7 E84.5.11 15:00	3.2	38.6 N	125.1 E84.5.4 22:05	2.6	35.1 N	126.7 E84.5.4 22:04	2.5	35.1 N	126.6 E84.4.30 11:59	3.1	39.3 N	125.7 E84.4.10 1:56	2.2	36.1 N	128.2 E84.3.30 13:30	2.6	39.1 N	125.9 E84.3.21 0:15	3.2	36.8 N	126.6 E84.3.17 13:00	3	39.5 N	126.1 E84.2.13 11:31	3.2	37.0 N	125.5 E84.1.30 13:21	2.4	39.6 N	126.2 E84.1.28 13:30	2.9	37.1 N	124.6 E84.1.13 17:06	3	37.4 N	129.5 E83.12.23 22:40	3	36.5 N	128.1 E83.12.21 20:10	2.3	38.2 N	126.1 E83.12.8 3:04	2.5	36.9 N	125.6 E83.10.11 13:47	3.5	38.8 N	125.7 E83.10.8 13:58	3.3	39.6 N	126.1 E83.9.27 13:07	2.9	38.9 N	124.9 E83.9.17 12:17	4.2	38.3 N	126.1 E83.8.21 5:13	3.5	36.4 N	126.0 E83.8.9 13:00	2.8	39.5 N	125.9 E83.6.21 0:52	3	36.8 N	127.5 E83.6.8 21:25	3.4	36.8 N	127.8 E83.5.9 18:59	3.2	38.9 N	126.3 E83.2.28 16:36	2.6	37.7 N	126.1 E83.2.11 4:53	2.6	38.6 N	126.5 E83.2.8 20:57	2.9	38.0 N	124.9 E83.1.11 1:15	3.4	38.7 N	125.6 E82.10.11 17:32	3.1	36.4 N	129.6 E82.8.31 20:49	3.2	37.1 N	126.0 E82.8.29 15:34	3.5	37.1 N	126.0 E82.8.29 15:29	3.3	37.1 N	125.9 E82.8.29 3:18	4	37.2 N	125.9 E82.5.27 19:21	3.5	38.6 N	125.8 E82.3.30 6:13	3	36.4 N	127.6 E82.3.28 1:04	3.6	37.6 N	125.3 E82.3.1 0:28	4.7	37.2 N	129.8 E82.2.25 19:14	3.4	38.8 N	125.7 E82.2.24 23:27	2.6	36.1 N	127.5 E82.2.14 23:37	4.5	38.3 N	125.7 E82.2.12 6:48	2.7	34.5 N	128.2 E81.12.3 12:25	3	38.9 N	125.9 E81.10.10 0:17	2.6	37.3 N	128.7 E81.9.25 3:18	3.4	39.7 N	125.5 E81.9.23 8:13	3.5	36.9 N	126.3 E81.9.6 12:59	2.6	39.6 N	126.6 E81.8.27 21:35	3.5	35.8 N	129.8 E81.6.14 20:57	2.8	37.8 N	125.7 E81.6.10 12:59	3	39.5 N	125.8 E81.5.21 18:09	3	38.7 N	126.1 E81.5.19 13:59	2.8	39.4 N	125.6 E81.4.15 11:47	4.8	35.9 N	130.1 E81.4.6 18:42	3.7	38.9 N	125.4 E81.4.3 18:39	2.6	36.0 N	128.9 E81.3.10 15:24	3	38.9 N	125.7 E81.1.2 19:08	3.5	39.7 N	124.8 E80.12.29 13:00	2.8	39.8 N	126.4 E80.12.24 21:38	2.7	36.0 N	128.6 E80.12.23 7:04	2.5	38.2 N	129.4 E80.12.6 0:08	2.8	38.4 N	126.1 E80.12.1 20:46	3	40.7 N	127.2 E80.12.1 13:29	3.5	40.7 N	127.2 E80.11.28 14:27	2.7	38.8 N	125.6 E80.11.28 12:59	2.6	39.4 N	125.8 E80.9.25 13:00	2.6	39.5 N	126.0 E80.8.23 11:24	2.5	37.1 N	125.3 E80.7.26 5:59	3.5	38.8 N	125.7 E80.6.30 23:00	3.6	34.0 N	126.0 E80.6.30 13:29	2.8	39.4 N	125.7 E80.5.15 14:43	3.1	38.3 N	125.7 E80.1.8 8:44	5.3	40.2 N	125.0 E79.12.25 16:55	3.2	38.8 N	126.3 E79.12.20 15:07	3	36.2 N	127.3 E79.12.19 7:32	3.5	35.4 N	127.5 E79.11.19 4:13	3.2	35.9 N	126.1 E79.10.27 12:59	3.7	39.5 N	125.7 E79.10.10 6:59	3.1	38.9 N	125.7 E79.8.30 0:39	3	38.3 N	127.9 E79.8.24 8:30	3.8	36.6 N	124.0 E79.8.18 16:34	2.4	37.0 N	126.4 E79.8.14 10:05	2.5	39.5 N	125.8 E79.8.13 12:12	3.5	36.3 N	128.5 E79.4.24 5:44	3	36.8 N	128.5 E79.4.9 8:49	3.3	39.7 N	125.7 E79.3.12 11:09	3.8	36.6 N	126.7 E79.2.24 19:00	2.9	36.6 N	126.7 E79.2.24 14:44	2.7	38.3 N	125.1 E79.2.8 8:52	4	36.6 N	126.7 E79.2.4 9:29	3.7	38.4 N	125.7 E79.1.30 0:33	3	36.1 N	128.3 E79.1.29 10:06	3.3	38.3 N	126.0 E79.1.24 0:40	3	35.7 N	126.0 E79.1.1 0:11	2.9	36.6 N	126.7 E78.12.12 21:58	3.3	35.9 N	126.3 E78.12.4 15:16	2.8	37.4 N	128.7 E78.11.23 11:06	4.6	38.4 N	125.6 E78.10.7 18:19	5	36.6 N	126.7 E78.9.16 2:07	5.2	36.6 N	127.9 E78.8.30 2:29	4.5	39.1 N	124.2 E